,ID,longitude,latitude,pile_num,perimeter,area
0,1,4.85857105255,52.40990448,1,399.4868279780197,11600.859748248642
1,5,4.92767095566,52.334728241,1,399.0264728898987,11581.131181147335
2,6,4.82937288284,52.3409729004,1,399.0646309112204,11582.76665783452
3,8,4.9076628685,52.3639755249,1,399.2053169663893,11588.796221117524
4,9,4.84885756175,52.39232508343333,3,551.9200461768713,19046.517843306137
5,10,4.91740465164,52.3773880005,1,399.28744216855563,11592.315727413825
6,14,4.894750118255555,52.38472154406668,9,470.16901911519835,15467.526765514654
7,15,4.838341554003333,52.40185674033333,3,400.8455468933155,11666.816437080386
8,16,4.87247610092,52.3807067871,1,399.30777387255125,11593.187023006261
9,17,4.909200668335,52.376218795750006,4,441.2412058564285,13588.782723059849
10,18,4.89013719559,52.40577316280001,6,399.4614729311367,11599.773298939324
11,19,4.83870887756,52.4014053345,2,399.434673468138,11598.624939018524
12,22,4.88891220093,52.3357391357,2,399.032648957686,11581.395893866442
13,24,4.874947865803333,52.33617401123333,3,495.598022596807,16563.20705981872
14,25,4.879843997951999,52.35710983276,10,504.32656309333197,17004.23713597866
15,26,4.85271883011,52.3915596008,1,399.37429032676505,11596.03744612998
16,27,4.86893892288,52.3926620483,1,399.3810497078025,11596.32709875786
17,28,4.918839097026249,52.3773388862375,8,422.78420231640706,13377.344815287239
18,30,4.94691419601,52.301433563200014,13,398.8232764418645,11572.421412128975
19,31,4.884865113666429,52.33784321374287,14,575.2700974065599,23499.025604483384
20,32,4.94638490677,52.2937850952,1,398.77665765697697,11570.423001888705
21,33,4.91761922836,52.3464851379,2,399.0983258282752,11584.210811380006
22,34,4.8381319046,52.3855400085,2,399.3373909205128,11594.456213724981
23,35,4.89528417587,52.3838691711,1,399.32715133943407,11594.017415619353
24,36,4.87885856628,52.364223480199996,2,405.7852133173079,12069.40679948448
25,38,4.85079073906,52.4097480774,2,405.9827481791596,12104.652052838428
26,41,4.99089002609,52.3563995361,1,399.15895924026603,11586.809465565688
27,46,4.953748975481429,52.30281339374286,7,584.9681735030975,23221.809556501874
28,49,4.9209891557675,52.4047355652,4,420.71410400641753,12885.847736935048
29,54,4.90040493011,52.3923492432,1,399.37913177454647,11596.244911722732
30,55,4.83955621719,52.397518158,1,399.4108292704102,11597.603196794173
31,56,4.854908148446666,52.335328419999996,3,433.0758770792654,13337.24791372011
32,57,4.77356449763,52.35589599606667,3,510.05327388186237,17047.402422257645
33,60,4.88962674141,52.33421325685,2,439.3505520771201,13587.555087834184
34,63,4.8433053493500005,52.38646380108333,6,513.8683547863504,19649.286258980792
35,64,4.94659042358,52.3059768677,1,398.85097923016366,11573.608922191615
36,67,4.854749917985,52.336391449,2,412.13676403824377,12594.943632545075
37,69,4.98074197769,52.2971992493,1,398.7974647906725,11571.314949577823
38,70,4.84956232707,52.3930091858,3,405.986549151777,12108.350238900095
39,71,4.842748165130001,52.3854446411,4,419.1469019368313,13129.843708457885
40,72,5.02252483368,52.3113975525,1,398.88404211943634,11575.026172468986
41,73,4.858798503875001,52.3407077789,2,479.6805734880219,16485.830768610216
42,76,4.75624752045,52.4098854065,1,399.48671090487676,11600.854731741574
43,77,4.87296485901,52.4124603271,1,399.5025172044733,11601.53201425254
44,78,4.807226753235,52.40663909909999,10,471.7845026181968,17206.07882829266
45,80,4.99991512299,52.350894928,1,399.12529011362733,11585.366470782268
46,81,4.89432382584,52.3850288391,1,399.33425814941484,11594.321964961657
47,82,4.929809331894999,52.372400283812496,8,545.750264764691,21475.394963088173
48,83,4.8732509613,52.3372612,1,399.0419487539701,11581.794490973467
49,84,4.91676712036,52.3444404602,4,399.08582587647726,11583.67507082696
50,85,4.94881010056,52.3691711426,4,399.2371218063612,11590.15925036374
51,87,4.95163583755,52.298248291,1,398.8038589340592,11571.589047579324
52,88,4.95332193375,52.3233261108,3,398.95683848003875,11578.146508527157
53,90,4.92226934433,52.3625411987,1,399.1965385939732,11588.420010251324
54,91,4.94148015976,52.3351707458,1,399.02917632740485,11581.247053463114
55,92,4.95618486404,52.3394165039,1,399.0551191506299,11582.35898137538
56,93,4.855188210803333,52.343620300299996,3,425.38760485267744,13618.771564385754
57,94,4.95080804825,52.3145256042,1,398.9031264249539,11575.844213706425
58,95,4.95684909821,52.3156166077,1,398.90978353582545,11576.12956590366
59,96,4.87983798981,52.3619728088,2,399.19306014950627,11588.270935512353
60,97,4.89516210556,52.3738822937,2,399.2659699228829,11591.395543296469
61,98,4.8800637722,52.3266677856,2,405.4740430396789,12081.90778598195
62,99,4.8942475318900005,52.3763771057,2,479.95461066826255,17255.79483250049
63,100,4.87557888031,52.39635849,1,399.4037169113733,11597.29842384146
64,101,4.95441198349,52.3700714111,1,399.24263382793265,11590.395471026437
65,102,5.00192213058,52.353969574,1,399.14409486536545,11586.172410368199
66,103,4.94558811188,52.3690605164,1,399.23644450539894,11590.130224199871
67,104,4.91462516785,52.332408905,1,399.0123043633589,11580.523899532434
68,106,4.91137313843,52.3922233582,1,399.3783599335128,11596.21183683419
69,107,4.86623907089,52.3847084045,1,399.33229437406186,11594.237811113022
70,108,4.84526109695,52.3792648315,1,399.2989395802277,11592.808439247385
71,109,4.94456100464,52.3648834229,1,399.2108738971817,11589.034371017658
72,110,4.871924877166666,52.38415527343333,3,531.7699856022884,18458.123933062656
73,111,4.94199419022,52.3612518311,1,399.18864806789816,11588.081847715086
74,112,4.93515205383,52.3602142334,1,399.18229875737416,11587.809735529829
75,113,4.89688587189,52.3451423645,1,399.0901167244096,11583.858974515872
76,114,4.943434000015,52.3632392883,2,517.3855302077034,17189.130740858247
77,115,4.91126918793,52.3599777222,1,399.1808515458807,11587.747712275073
78,116,4.94870519638,52.3244934082,1,398.9639650517186,11578.451973758722
79,117,4.880113442736667,52.34989674886666,3,579.420010488105,22190.47294598217
80,118,4.91860103607,52.3726577759,1,399.2584709328057,11591.074174376727
81,119,4.91802120209,52.3699836731,1,399.2420966263957,11590.372449007271
82,120,4.94612534841,52.351710001633336,3,524.8190448606191,18271.53640914673
83,121,4.856672286986667,52.36612065633333,3,627.1997350161566,22941.656372257534
84,122,4.8230919838,52.3570327759,1,399.16283321449225,11586.975494843307
85,123,4.85112905502,52.3593673706,1,399.1771169038904,11587.587656218046
86,124,4.91754817963,52.3525924683,1,399.13567194496295,11585.811419525997
87,125,4.925369501115,52.355718612649994,2,485.64061122441893,17559.04270972657
88,126,4.86828517914,52.3755149841,1,399.2759694686601,11591.824071141013
89,127,4.871963024139999,52.38338088985,2,474.23321852846755,16190.731638112426
90,128,4.9209151268,52.3506317139,1,399.12368044522174,11585.29748272156
91,129,4.85411691666,52.3647727966,1,399.2101967747177,11589.005352053535
92,130,4.96341514587,52.323551178,1,398.95821251862833,11578.205403861894
93,131,4.86890077591,52.3657341003,1,399.21608088576585,11589.257522936909
94,132,4.88237476349,52.3260612488,1,398.9735378342796,11578.862288422
95,133,4.8779668808,52.3369598389,1,399.04010737175,11581.71556796885
96,134,4.87444877625,52.3656578064,1,399.2156138793321,11589.237508847593
97,135,4.8532037735,52.3711967468,1,399.2495242895495,11590.690764407518
98,136,4.9405012130733335,52.35396830243334,3,591.3501980431679,23105.470137659577
99,137,4.782997369765,52.35220909115,2,425.49663678526275,13524.673759495563
100,138,4.94099378586,52.3730163574,1,399.26066683850263,11591.16827997628
101,139,4.9369025230400005,52.3508415222,2,522.3369927068185,17359.421545154062
102,140,4.88673877716,52.3491439819,1,399.11458281800884,11584.907570234978
103,141,4.87298202515,52.3839378357,1,399.32757212243325,11594.035447545239
104,142,4.923969984055,52.35560417175,2,463.3495484916171,14706.396841684042
105,143,4.86320400238,52.3448600769,1,399.08839103431063,11583.78501231988
106,144,4.87610721588,52.3490638733,1,399.1140929679063,11584.88657583708
107,145,4.92268610001,52.3575248718,1,399.1658438187888,11587.10452189723
108,146,4.86184310913,52.3371238708,1,399.0411096392679,11581.7585258754
109,147,4.89065790176,52.3817749023,1,399.31431830653156,11593.467476106207
110,148,4.89739322662,52.3458862305,1,399.09466429588326,11584.05388069174
111,149,4.85846805573,52.3781051636,1,399.29183532969535,11592.503993012238
112,150,4.8710411389666675,52.34608078,3,411.61681110860803,12178.664040324255
113,151,4.91373491287,52.3561782837,1,399.1576057186722,11586.751456778822
114,152,4.92103815079,52.3576889038,1,399.16684737526117,11587.147531743623
115,153,4.92706489563,52.3555908203,1,399.1540119750794,11586.597437047149
116,154,4.881076335906666,52.3544883728,3,654.2392524511627,24046.83423892304
117,155,4.872833013535001,52.38185310365,2,488.2956805756044,16289.03918012021
118,156,4.88868713379,52.3517036438,1,399.13023592663353,11585.578440792604
119,157,4.90955400467,52.3577690125,1,399.1673374867227,11587.168536689858
120,158,4.79490280151,52.3535766602,1,399.14169157524077,11586.069409942726
121,159,4.85078191757,52.3670120239,2,519.0441696214708,17978.141962116697
122,160,4.8766078949,52.3772506714,1,399.2866009478245,11592.279677477998
123,161,4.798225402833333,52.3522262573,3,412.3400978791079,12608.55426549613
124,162,4.84354925156,52.36460495,1,399.2091694273596,11588.961323714557
125,163,4.8478313684500005,52.372920989975,4,524.00773577601,18869.95843274465
126,164,4.874337577817999,52.357505035420004,5,575.6516573647052,21531.726809420077
127,165,4.86340522766,52.3265457153,1,398.9764960358745,11578.989084266163
128,166,4.88231277466,52.3813934326,1,399.31198095812726,11593.367312241026
129,167,4.89292812347,52.3507614136,1,399.1244736120084,11585.331476711546
130,168,4.81592512131,52.3397636414,1,399.05724056570887,11582.449905976999
131,169,4.88712596893,52.3542709351,1,399.14593820576573,11586.25141228118
132,170,4.882100582125,52.353855133050004,2,424.61748258465246,12826.703172308136
133,171,4.90927219391,52.3476371765,1,399.10536941512214,11584.512693561244
134,173,4.88551092148,52.3820152283,1,399.3157908656047,11593.530580539042
135,174,4.92285299301,52.3473548889,1,399.1036434566566,11584.438720548727
136,175,4.94303607941,52.3732719421,1,399.2622320364042,11591.235356511064
137,176,4.99260282516,52.3592414856,1,399.17634665217474,11587.554645388793
138,177,4.86047315598,52.3688850403,1,399.2353701717828,11590.084182926123
139,178,4.90011548996,52.353536605849996,2,482.4552935630993,17288.781305561093
140,179,4.87470912933,52.3563461304,1,399.15863252709505,11586.79546340516
141,180,4.91611003876,52.3862609863,1,399.3418096997404,11594.645571414858
142,181,4.88485002518,52.3803634644,1,399.30567039785916,11593.096881114814
143,182,4.8739771843,52.3729057312,1,399.2599893739795,11591.13924722935
144,184,4.86457586288,52.373550415,1,399.2639374297588,11591.308441027475
145,185,4.85379934311,52.37289301556666,3,482.0068207445389,17032.805154978872
146,186,4.79361581802,52.3461380005,1,399.0962035234593,11584.119850944922
147,187,4.91846084595,52.3488197327,1,399.11260011455187,11584.822593859095
148,188,4.91708469391,52.4099769592,2,406.09066018105875,12112.967489676888
149,189,4.8915271759,52.3440093994,1,399.0831908293797,11583.56213377345
150,191,4.88105940819,52.382112503049996,2,433.38825380347294,14028.630259101816
151,192,4.96640777588,52.3046646118,1,398.84297694663286,11573.265897700274
152,194,4.895546913145,52.3412055969,2,429.4751029187582,13814.501345513201
153,195,4.927256743113333,52.35259755453333,3,490.7313489855627,16208.238384523163
154,196,4.86780023575,52.3556365967,3,542.3655254434033,18437.087500938924
155,197,4.80075311661,52.3453788757,1,399.0915625968775,11583.920943803161
156,198,4.86570310593,52.3439941406,1,399.08309755369726,11583.558136020332
157,200,4.903254985809999,52.409460067750004,2,436.8416076869096,13547.510612852533
158,201,4.9217774868,52.3573036194,2,432.2242029605652,13970.95464885391
159,202,4.8885595798449994,52.387960434,2,451.93664008809236,14148.538348648308
160,203,4.85191297531,52.3725585938,1,399.2578635623684,11591.04814547206
161,204,4.9022835095733335,52.344163258900004,3,498.1524433862896,18086.11139420203
162,205,4.84797811508,52.3721847534,1,399.2555742795713,11590.950038002007
163,206,4.87131023407,52.3796768188,1,399.3014635829896,11592.916602774882
164,207,4.88656616211,52.3757553101,2,399.27744145302717,11591.887152418647
165,208,4.82970285416,52.3564491272,1,399.1592626179612,11586.822467632246
166,209,4.894913434985,52.3527584076,2,514.107173913468,18562.2446701056
167,210,4.91735506058,52.3719024658,1,399.2538456722017,11590.875958280285
168,211,4.92391204834,52.3626403809,1,399.1971455854952,11588.446023859851
169,212,4.8028670946766665,52.38153203326667,3,421.1645796524612,12777.692308799567
170,213,4.9005022049,52.3873634338,1,399.34856684225844,11594.935133843852
171,214,4.8967099189750005,52.357072830199996,2,418.4483325231167,13070.916949688672
172,216,4.87451791763,52.3799057007,1,399.3028658345949,11592.976694753874
173,217,4.7909488678,52.3634719849,1,399.2022351092124,11588.664143561342
174,219,4.91184997559,52.3533096313,1,399.1400583031293,11585.999410982251
175,220,4.89235115051,52.4243812561,1,399.5757276943825,11604.668917975758
176,221,4.80365800858,52.3468475342,1,399.10054147198707,11584.305772144671
177,222,4.9109749794,52.3477935791,2,399.10632570321343,11584.553679151979
178,223,4.90104293823,52.3490104675,1,399.1137664055319,11584.872579764553
179,225,4.986162344613334,52.31985473633333,3,533.2227383950823,17910.108988790624
180,227,4.89127492905,52.3561897278,1,399.1576757267989,11586.754457173394
181,228,4.86764383316,52.3453712463,1,399.0915159539697,11583.918944721057
182,230,4.94359779358,52.4010734558,1,399.4326374758046,11598.53769576778
183,231,4.85697507858,52.35459327695,2,415.7313075527239,12722.721129217627
184,232,4.86134719849,52.3410987854,1,399.0654002844155,11582.799633250215
185,233,4.85452890396,52.377658844,1,399.28910126440064,11592.386826779804
186,234,4.94070911407,52.359413147,1,399.17739699816184,11587.59966027487
187,235,4.96806001663,52.2940750122,1,398.77842434825436,11570.498735790023
188,236,4.92373514175,52.3637046814,1,399.20365928982284,11588.725178934983
189,237,4.846510648724999,52.37499046325,2,479.8050425100139,17271.42143207762
190,238,4.90220594406,52.3576126099,1,399.1663806042365,11587.12752713255
191,239,4.85430717468,52.3694725037,1,399.23896689966784,11590.238322909567
192,240,4.93833303452,52.376499176,3,399.281997727948,11592.08240932189
193,241,5.00214465459,52.354826609300005,3,445.71259135958553,15052.025271034785
194,242,4.88497400284,52.3665924072,1,399.22133485299065,11589.482687489128
195,243,4.85409116745,52.3550224304,1,399.15053504028856,11586.44842313829
196,244,4.8462638855,52.3521957397,1,399.1332455296188,11585.707427457959
197,245,4.84977197647,52.3548164368,1,399.14927497099393,11586.394419235714
198,246,4.90311813354,52.3436355591,1,399.08090562378993,11583.46419061669
199,247,4.933114528655,52.36557769775,2,540.3408199579477,17969.240753844842
200,248,4.855443636576667,52.35662460326666,3,518.5985916531331,19478.799355405827
201,249,4.85897779465,52.373046875,1,399.2608537268501,11591.176289088251
202,250,4.88008594513,52.3586807251,1,399.17291560269814,11587.407600045966
203,251,4.88842201233,52.3729324341,2,399.2601529000855,11591.146255136477
204,252,4.95703601837,52.4010810852,1,399.4326842803117,11598.53970135585
205,253,4.91912269592,52.4130020142,2,406.1092329453556,12113.798309908241
206,254,4.83673906326,52.3658638,1,399.21687480161194,11589.291547120474
207,255,4.98984193802,52.3006477356,1,398.81848565628457,11572.21604784473
208,256,4.83344602585,52.3885688782,1,399.3559558071979,11595.251770291561
209,257,4.88513183594,52.37292099,1,399.2600828161541,11591.143251696965
210,258,4.88792610168,52.3777809143,1,399.28984903529977,11592.418871951979
211,259,4.928774674733333,52.36132049559999,3,405.79240872892206,12099.624442707687
212,260,4.92541408539,52.3881607056,1,399.3534537846564,11595.14455224584
213,261,4.858882331848,52.37718429563999,5,651.6551862283872,26039.335613799314
214,262,4.840157985685,52.36032295225,2,479.5476832144185,15749.243378249254
215,263,4.80864286423,52.3428192139,1,399.07591566863385,11583.25032229671
216,264,4.96438598633,52.3192329407,1,398.9318530012601,11577.075549068202
217,265,4.805570602415,52.34297943115,2,413.61869485160514,12320.650336843397
218,267,4.93189287186,52.3365211487,1,399.0374269381063,11581.600682413458
219,268,4.904422918956667,52.35716120403333,3,526.7964911216727,19581.601584083535
220,269,4.912091493605,52.34486198425,2,417.9102373683765,12700.057397063023
221,270,4.90472412109,52.3488883972,1,399.11301997589953,11584.84058864633
222,271,4.91420793533,52.3947792053,1,399.3940318307925,11596.883404656093
223,272,4.93538713455,52.3054428101,1,398.8477224086125,11573.469316054123
224,273,4.86836838722,52.3619709015,2,528.6793301108561,17721.904942591045
225,274,4.92174816132,52.3862609863,1,399.34180969974676,11594.645571415225
226,275,4.83955287933,52.3628959656,1,399.19870976803975,11588.513059483013
227,276,4.87421703339,52.3915748596,1,399.37438387980586,11596.041455076418
228,277,4.93013238907,52.36383310956666,3,517.2356304633295,18909.453639084415
229,278,4.96824502945,52.3138809204,1,398.8991928921858,11575.675605162625
230,280,4.86757612228,52.328163147,1,398.9863728877963,11579.412428907004
231,282,4.92657995224,52.368522644,1,399.2331514762232,11589.98909919021
232,283,4.868649721145,52.344587326075,4,478.7928904207139,15581.74331866265
233,284,4.81999897957,52.383326530424995,4,547.5929058545524,20478.90350600502
234,285,4.95359611511,52.3090667725,1,398.8698244048019,11574.416729556271
235,286,4.818648099895,52.37730026245,2,437.196684793086,14157.842672976907
236,287,4.90258808136,52.35684204102,5,548.3623996820445,22175.815129871116
237,288,4.79741287231,52.3678016663,1,399.22873759307663,11589.799938798658
238,289,4.98452615738,52.325592041,1,398.97067288915474,11578.739489590993
239,290,4.87612819672,52.361995697,1,399.19320021793925,11588.276938397825
240,291,4.88838720322,52.3591194153,1,399.1755997472651,11587.522635130326
241,293,4.860358635588333,52.351687113433336,6,617.1925798434752,22590.245188002955
242,295,4.8226053714749995,52.3740348816,2,510.9774963559518,17671.48130698265
243,296,4.916942278543333,52.333442687966674,3,522.7865679159555,17329.831412246123
244,297,4.90057420731,52.344165802,1,399.08414689976803,11583.603110594557
245,298,4.846093177796667,52.35118103026667,3,587.8353474246126,20151.84581908833
246,299,4.83547115326,52.351272583,1,399.1275996840015,11585.465455539044
247,300,4.90605592728,52.3406906128,1,399.06290567030373,11582.692713740455
248,301,4.8995769818633335,52.34535217285,6,626.4757150604536,27236.080110573243
249,302,4.87542486191,52.3452758789,1,399.0909329406168,11583.893957085407
250,303,4.92016601562,52.3637046814,2,399.2036592898158,11588.725178934112
251,304,4.89291191101,52.3596038818,2,399.17856406070274,11587.649677288602
252,305,4.92701292038,52.3563117981,1,399.15842249568317,11586.78646194316
253,306,4.909939130150001,52.38279851276667,3,444.01787059086377,13814.825917838445
254,307,4.848835309346667,52.37417856849999,3,515.9760268906459,19261.14030410269
255,308,4.907430410385,52.3437232971,2,449.46359530609624,15256.606216657963
256,311,4.84854602814,52.3529701233,1,399.13798175931123,11585.910414072763
257,312,4.89710736275,52.3651561737,2,452.78737787694854,15395.911289590847
258,314,4.92019319534,52.4132118225,1,399.50713078406653,11601.729699796608
259,315,4.88248920441,52.324798584,1,398.9658282951096,11578.531837454206
260,316,4.91449022293,52.3454437256,2,399.0919590494982,11583.937935525382
261,317,4.99338388443,52.2935256958,1,398.7750769604264,11570.3552410963
